Frequency,Nominal,Min,Max
15000,0.00037287507712036315,-0.009540841631629337,0.010216736527369878
15349.394884211311,0.00039046593939365086,-0.009986591187313397,0.010694724571996939
15706.928220763491,0.0004088865846343505,-0.01045297878494768,0.011194904295667538
16072.789578564094,0.00042817605016215384,-0.010940942358804537,0.011718289749797137
16447.172942147772,0.00044837518575107103,-0.01145146083505142,0.012265939784684717
16830.276814529447,0.0004695267333843634,-0.011985555773511276,0.012838959883368695
17222.304322453238,0.000491675409846075,-0.012544293061745261,0.013438504056735814
17623.46332409294,0.0005148679920656676,-0.013128784661646804,0.01406577680049011
18033.96651926119,0.0005391534051360797,-0.013740190409134956,0.014722035114677203
18454.03156218572,0.0005645828129910441,-0.014379719866844493,0.015408590586036795
18883.881176912502,0.0005912097116946638,-0.015048634230140589,0.016126811533389802
19323.743275397002,0.0006190900249355545,-0.015748248286051442,0.016878125215974406
19773.8510783461,0.0006482822018423597,-0.016479932425041886,0.017664020104579906
20234.443238874795,0.000678847316653045,-0.017245114705068593,0.018486048214741178
20705.763969043262,0.000710849170026805,-0.01804528296721777,0.01934582750142283
21188.063169341305,0.0007443543915096463,-0.018881987002181626,0.020245044313734147
21681.596561188904,0.0007794325428092892,-0.01975684076641028,0.021185455908390025
22186.625822523103,0.0008161562211801113,-0.020671524646565548,0.022168893019912792
22703.418726543114,0.0008546011622593068,-0.02162778777098253,0.023197262485187248
23232.24928368721,0.0008948463416220843,-0.022627450366172697,0.024272549919594107
23773.397886916693,0.000936974073943767,-0.023672406156511228,0.025396822441425423
24327.15146038394,0.0009810701086759063,-0.02476462480480736,0.026572231440638402
24893.8036115634,0.001027223720977632,-0.02590615439146609,0.02780101538746327
25473.654786926152,0.0010755277961517048,-0.0270991239294609,0.02908550267580841
26067.01243124062,0.001126078906017937,-0.02834574591243928,0.030428114495525054
26674.19115058383,0.0011789773747638273,-0.029648318892859727,0.03183136772709899
27295.512879149737,0.0012343273322307914,-0.03100923008711908,0.03329787785131419
27931.307049942996,0.0012922367514335911,-0.03243095800459696,0.034830361865663156
28581.910769448692,0.0013528174673382814,-0.03391607509707289,0.03643164119857199
29247.668996370663,0.0014161851730776867,-0.03546725042578765,0.03810464461119689
29928.934724533177,0.0014824593893189965,-0.03708725234271694,0.03985241107588458
30626.069170042923,0.0015517634020318638,-0.03877895118341272,0.04167809261919107
31339.441962810575,0.0016242241630381518,-0.040545321968786095,0.04358495711627101
32069.431342533462,0.0016999721471563682,-0.042389447113896986,0.04557639102228699
32816.42435924327,0.0017791411587480945,-0.04431451914201938,0.04765590202542676
33580.81707852507,0.0018618680797324494,-0.04632384340347828,0.049827121604681515
34363.01479151657,0.0019482925499751235,-0.04842084079920598,0.05209380747446566
35163.432229798804,0.002038556569828293,-0.050609050510485004,0.054459845896642566
35982.493785292325,0.0021328040134774586,-0.05289213273738075,0.05692925383927016
36820.63373527542,0.002231180040295902,-0.05527387144997931,0.05950618096005282
37678.29647264366,0.002333830389827236,-0.05775817715848292,0.06219491139049871
38555.93674153292,0.00244090054453134,-0.06034908970995835,0.06499986529595292
39454.019878430685,0.0025525347425703407,-0.06305078112189251,0.06792560018417253
40373.02205890369,0.0026688748208084823,-0.06586755846545946,0.07097681193356026
41313.43055007245,0.0027900588660572266,-0.06880386681337967,0.0741583355101718
42275.74396896676,0.0029162196503434924,-0.071864292271056,0.07747514533924708
43260.47254689904,0.003047482822484765,-0.07505356511184444,0.08093235529465517
44268.13839999573,0.0031839648258878196,-0.07837656304127572,0.08453521826481988
45299.275806030186,0.0033257705076694686,-0.0818383146176693,0.08828912524847835
46354.4314877038,0.003472990379754974,-0.0854440028607765,0.09219960392641083
47434.16490252563,0.0036256974861364056,-0.08919896908308031,0.09627231664487569
48539.04853944417,0.0037839438222666655,-0.0931087169831185,0.10051305773239694
49669.668222388595,0.003947756240867159,-0.09717891704452657,0.10492775005203235
50826.62342088031,0.004117131762643266,-0.10141541129099188,0.10952244066269491
52010.52756787967,0.0042920321875059295,-0.10582421845589253,0.11430329542353389
53222.008385036235,0.004472377868805136,-0.11041153963838231,0.11927659231857118
54461.708215515115,0.004658040465007272,-0.11518376453771968,0.12444871319776296
55730.28436457579,0.004848834412607599,-0.12014747838974925,0.129826133515292
57028.40944808409,0.005044506760539911,-0.12530946978019347,0.13541540948141784
58356.771749142,0.00524472485348724,-0.13067673959015183,0.14122316180847225
59716.07558302449,0.005449061127740403,-0.13625651145634454,0.14725605489663363
61107.0416706168,0.005656973953524126,-0.14205624432738742,0.15352076982445517
62530.4075205502,0.005867782974484679,-0.14808364800424392,0.16002396882430908
63986.92782023879,0.006080636687704474,-0.1543467030241295,0.16677224794219267
65477.37483602478,0.00629446897183997,-0.1608536869639335,0.17377207317947474
67002.53882264435,0.006507939760159174,-0.16761321032119028,0.18102969340751868
68563.22844223113,0.006719352851217218,-0.17463426675534657,0.18855102047229513
70160.2711930796,0.006926540641350336,-0.1819263048959345,0.19634146278874734
71794.51384839563,0.007126700896985736,-0.1894993325241977,0.20440569282037943
73466.8229052668,0.007316163906801775,-0.1973640692570708,0.2127473203696813
75178.08504409071,0.007490058518911648,-0.20553217170187182,0.22136843144532492
76929.20759870458,0.007641831310415579,-0.21401656655835088,0.23026893500756734
78721.11903746575,0.007762552486285878,-0.2228319439879478,0.23944563479696782
80554.76945553775,0.007839912220958601,-0.2319954881571708,0.24889090737638297
82431.13107864352,0.007856767950569358,-0.24152795766382407,0.25859081565021214
84351.19877855219,0.007789040717165944,-0.2514552805697839,0.2685224125608537
86315.99060057336,0.007602668633622023,-0.2618109041647918,0.2786498825102398
88326.54830333816,0.0072491958363845675,-0.27263924863392797,0.28891901420918525
90383.93791115347,0.006659388810891072,-0.2840007711123372,0.29924927812137786
92489.25027922212,0.005734004572553138,-0.29597937285987164,0.309522466349565
94643.60167202877,0.004330453211434914,-0.3086932064467151,0.3195664037985824
96848.13435519811,0.0022435546761317444,-0.3223104019197715,0.3291316040266503
99104.01720113918,-0.0008221749548210902,-0.33707188492524964,0.3378578524857837
101412.44630879704,-0.005292336887421765,-0.35332437594841004,0.3452264693813529
103774.64563784024,-0.011779646353261808,-0.371567923780341,0.35049234288563536
106191.86765762045,-0.02116512629465009,-0.39252402936895725,0.3535226809228399
108665.39401124825,-0.03471295076031536,-0.41723262533755723,0.35260430193200054
111196.53619513736,-0.054231212051501276,-0.44718886002530034,0.34530124904780635
113786.63625437728,-0.08229357324077213,-0.4845335001188029,0.32866073570551685
116437.06749430347,-0.12253798084713305,-0.5323129340194839,0.29851004046008633
119149.23520864193,-0.18005544136877052,-0.5948241760566212,0.24902029661672936
121924.57742461457,-0.2618687852351623,-0.6780527906474638,0.17218174630877298
124764.56566540033,-0.3774693468699652,-0.7926515379882111,0.057241844518288794
127670.70573035613,-0.5393171945912926,-0.9528666275378781,-0.10954214436421711
130644.53849341175,-0.7631114665274519,-1.1695673078369178,-0.34454201396920403
133687.64072006146,-1.067519390967335,-1.459632501914273,-0.668883319804656
136801.62590338607,-1.4729887691357113,-1.8437703839347763,-1.103288139669001
139988.14511954825,-1.9993993951264775,-2.3729499856086766,-1.6276311372500076
143248.88790321499,-2.662761532335715,-3.049009790437685,-2.27907089410299
146585.5831433712,-3.471848628277609,-3.9179444752528427,-3.058474824871334
149999.99999999956,-4.426091216666742,-4.9387199767929655,-3.9440895507018925
153493.94884211267,-5.515722211532903,-6.087757649924043,-4.970440077728759
157069.28220763447,-6.724101823840068,-7.346365180986151,-6.124059083099528
160727.8957856405,-8.031143956808116,-8.694006316805144,-7.386044398023444
164471.72942147727,-9.416536571971626,-10.111101532145437,-8.735836868654722
168302.76814529402,-10.861949839070705,-11.580680354097305,-10.153964282356299
172223.0432245319,-12.352095477503461,-13.08898492785267,-11.623627672143312
176234.6332409289,-13.87491303915218,-14.625378791838946,-13.131254010236539
180339.6651926114,-15.42125774344931,-16.181911463582114,-14.666375424259376
184540.3156218567,-16.98438788208968,-17.752780898303747,-16.221181400333542
188838.81176912453,-18.559431622441952,-19.333824577863055,-17.78997936349433
193237.4327539695,-20.14291817111073,-20.92209263047428,-19.368688971895008
197738.51078346046,-21.732400159461772,-22.515513318539302,-20.954420167696487
202344.4323887474,-23.32616497285084,-24.112641668358346,-22.545143608687685
207057.63969043206,-24.923021256886475,-25.71247562101348,-24.13944355327184
211880.63169341246,-26.522144417643677,-27.314323962895365,-25.73633740431992
216815.96561188842,-28.12296643587441,-28.917712600722393,-27.335146230088135
221866.25822523038,-29.725098067177985,-30.522318604206248,-28.935402966252852
227034.18726543046,-31.328274291529006,-32.127924063022334,-30.536787869874907
232322.49283687142,-32.93231625528946,-33.73438394342914,-32.139083400539896
237733.97886916623,-34.53710481806977,-35.34160376941328,-33.742142816524485
243271.51460383867,-36.14256221952436,-36.94952416583419,-35.34586838880263
248938.03611563324,-37.748639405055584,-38.55811017809834,-36.950196328036355
254736.54786926077,-39.35530728372326,-40.16734390819006,-38.55508638109738
260670.12431240542,-40.96255071227091,-41.777219448470746,-40.16051466730745
266741.91150583746,-42.570364365446444,-43.38773940451391,-41.76646875768016
272955.1287914965,-44.178749909130694,-44.998912514717226,-43.37294430420169
279313.0704994291,-45.78771407153647,-46.61075202520329,-44.97994273831299
285819.107694486,-47.397267332068125,-48.22327458329688,-46.58746970544471
292476.68996370566,-49.00742303373992,-49.83649948554959,-48.195534005057254
299289.34724533075,-50.618196784872495,-51.450448166625755,-49.80414687679576
306260.69170042814,-52.22960605719188,-53.06514385017315,-51.41332152264945
313394.4196281046,-53.84166991606672,-54.680611306821774,-53.02307278908687
320694.3134253335,-55.45440883835383,-56.29687668097912,-54.63341695667264
328164.2435924315,-57.06784458689525,-57.9139673594063,-56.24437160089123
335808.1707852495,-58.68200012000773,-59.531911862252855,-57.85595549905168
343630.1479151645,-60.29689952063181,-61.15073974239064,-59.468188565778
351634.3222979868,-61.91256793406818,-62.77048148228157,-61.08109180478121
359824.93785292195,-63.529031506043964,-64.39116837975357,-62.69468726810437
368206.33735275286,-65.14631731465319,-66.01283241530662,-64.30899801634457
376782.96472643525,-66.76445329079606,-67.63550609416386,-65.9240480748417
385559.36741532775,-68.3834681223029,-69.25922225638553,-67.53986238172259
394540.1987843054,-70.00339113710503,-70.88401384808094,-69.15646672416975
403730.2205890354,-71.62425216069455,-72.50991364615133,-70.77388765945489
413134.30550072296,-73.24608134275591,-74.1369539281111,-72.39215241721404
422757.439689666,-74.86890894728538,-75.76516607738317,-74.0112887791906
432604.7254689887,-76.49276509975886,-77.39458011304552,-75.63132493226226
442681.3839999556,-78.1176794839649,-79.02522413130762,-77.25228929001365
452992.75806030014,-79.7436809799835,-80.65712364399702,-78.87421027742009
463544.3148770362,-81.37079723344853,-82.29030079700634,-80.49711607236974
474341.6490252545,-82.99905414466073,-83.92477344895164,-82.12103429675649
485390.4853944399,-84.62847526429337,-85.56055408718501,-83.74599164871397
496696.68222388404,-86.25908108032205,-87.1976485547361,-85.37201346620826
508266.2342088011,-87.8908881783776,-88.83605455768377,-86.99912321064146
520105.27567879466,-89.52390825492535,-90.47575991782733,-88.62734185730872
532220.0838503604,-91.15814695947176,-92.11674053029321,-90.25668717746987
544617.0821551491,-92.7936025383434,-93.75895797983817,-91.8871728944005
557302.8436457558,-94.43026424842895,-95.40235676307572,-93.51880769304327
570284.0944808386,-96.06811050457308,-97.04686105666136,-95.15159405973968
583567.7174914177,-97.70710671902975,-98.69237096367615,-96.78552692494704
597160.7558302425,-99.34720278549005,-100.33875816215448,-98.42059207778512
611070.4167061656,-100.98833015369456,-101.9858608711138,-100.05676431667618
625304.0752054995,-102.63039843354906,-103.63347804089139,-101.69400529520206
639869.2782023853,-104.27329146006113,-105.28136266657582,-103.33226101658404
654773.7483602451,-105.9168627424541,-106.92981416575913,-104.97145892389358
670025.3882264408,-107.56093021274218,-108.57870596683327,-106.61150452625859
685632.2844223086,-109.2052701812578,-110.22681952333596,-108.25227749401954
701602.7119307932,-110.84961039969286,-111.8736378299553,-109.89362714816978
717945.1384839533,-112.49362212698458,-113.51854744280624,-111.53536726173029
734668.229052665,-114.13691109101846,-115.16082426886875,-113.17727008335736
751780.8504409039,-115.77900724123003,-116.79961784324834,-114.81905948703216
769292.0759870426,-117.41935319589024,-118.43393412874542,-116.46040314695979
787211.1903746541,-119.0572913059149,-120.06261696141271,-118.10090363495485
805547.6945553742,-120.69204928793354,-121.68432838803676,-119.74008834016111
824311.3107864318,-122.3227244273469,-123.2975283027823,-121.3773981199981
843511.9877855184,-123.94826642220357,-124.90045399520668,-123.01217460940158
863159.90600573,-125.56745903649393,-126.49110047199503,-124.6436461460629
883265.4830333779,-127.17890086258508,-128.06720270602676,-126.27091231653145
903839.379111531,-128.7809856620409,-129.62622128603772,-127.89292719646309
924892.5027922174,-130.37188296509643,-131.16533326328377,-129.50848145320583
946436.0167202839,-131.94951986091698,-132.68143027801608,-131.11618360561417
968481.3435519771,-133.5115651965123,-134.17112624108879,-132.71444089910102
991040.1720113877,-135.05541770556349,-135.64580141353366,-134.30144045620975
1014124.4630879661,-136.57819988082204,-137.1471094688527,-135.80917178654198
1037746.456378398,-138.07675964174302,-138.62535664150445,-137.2848956372939
1061918.6765762,-139.54768197405474,-140.1343053933664,-138.68230521454657
1086653.9401124779,-140.98731265970605,-141.6166265559824,-140.02268281759336
1111965.3619513689,-142.3917959008561,-143.06855053789639,-141.31896568544107
1137866.362543768,-143.7571270096217,-144.49993214920318,-142.56773704358363
1164370.6749430296,-145.07922035925554,-145.91052748658538,-143.76583901719454
1191492.3520864141,-146.35399150226425,-147.28225036362537,-144.88696463327966
1219245.7742461406,-147.57745086153625,-148.6108079477327,-145.91489053943047
1247645.656653998,-148.74580487503846,-149.90120145178437,-146.8771653466513
1276707.057303556,-149.8555591652477,-151.1595789862643,-147.7719923942374
1306445.384934112,-150.90361746767397,-152.36562633507137,-148.59822727922116
1336876.407200609,-151.88736989642183,-153.51558818755174,-149.35539774586152
1368016.259033855,-152.80476474437856,-154.60601239730946,-150.04369889625121
1399881.4511954768,-153.65435935355185,-155.63384161672812,-150.6639658666341
1432488.8790321439,-154.43534743610235,-156.59649286933075,-151.21762740938857
1465855.8314337058,-155.14756226088835,-157.4919197607863,-151.70664445835078
1499999.9999999895,-155.79145700070913,-158.3186534538293,-152.1334378036241
1534939.4884211204,-156.3680649828794,-159.07582037325307,-152.50080864668723
1570692.8220763383,-156.87894345252886,-159.76313655538212,-152.8118552728057
1607278.9578563983,-157.32610475036122,-160.38088030097217,-153.06988855445985
1644717.2942147658,-157.71193865818876,-160.92984609839095,-153.27834859075324
1683027.681452933,-158.03912927492573,-161.41128355352208,-153.4407245043602
1722230.4322453116,-158.3105693437272,-161.82682533265415,-153.56047920399814
1762346.3324092813,-158.52927458507085,-162.17840803807124,-153.64098069912063
1803396.651926106,-158.69830034316584,-162.4681896777105,-153.68544126572925
1845403.1562185585,-158.82066269483673,-162.70439827131813,-153.6968653906884
1888388.1176912368,-158.89926603589996,-162.89798821613547,-153.67241563687355
1932374.3275396866,-158.93683898835388,-163.04045196170938,-153.61534563835394
1977385.107834596,-158.93588023065007,-163.1344344331836,-153.53044210423897
2023444.3238874653,-158.8986155476245,-163.18243970722125,-153.41926224004
2070576.3969043116,-158.8269670568639,-163.18677628804386,-153.2830176293113
2118806.3169341153,-158.72253523109677,-163.14951510820154,-153.1225795847725
2168159.6561188744,-158.58659402546294,-163.0724617946367,-152.93849340148032
2218662.582252294,-158.4200991333122,-162.95714423420287,-152.7310013581137
2270341.8726542946,-158.22370910714187,-162.80481587014737,-152.46246017586415
2323224.928368704,-157.9978187467538,-162.61647446968172,-152.13370567802224
2377339.7886916515,-157.74260372654146,-162.39289532652992,-151.774967655103
2432715.146038376,-157.45807487741166,-162.14180105110412,-151.3861944641081
2489380.361156321,-157.14413986311314,-161.91096387629872,-150.96746557016783
2547365.4786925963,-156.80066925435824,-161.6511614205744,-150.5190424823962
2606701.2431240426,-156.42756331991058,-161.36238830605137,-150.04140546736843
2667419.115058363,-156.02481537395883,-161.04454306665616,-149.5352736398352
2729551.287914953,-155.59256740210353,-160.69749255000227,-149.00153578652532
2793130.7049942785,-155.13115405328986,-160.32113671799863,-148.44146265315464
2858191.0769448476,-154.64113196678542,-159.91546985303617,-147.85644354623165
2924766.899637044,-154.12329272495046,-159.48063408773356,-147.24797932917784
2992893.472453295,-153.57865930012593,-159.0169615469446,-146.61774094595478
3062606.9170042686,-153.00846744572883,-158.52500224934846,-145.96748956877346
3133944.196281033,-152.41413481098098,-158.00553618574483,-145.299004406592
3206943.134253321,-151.79722143885527,-157.45956949601623,-144.61403377991516
3281642.4359243014,-151.15938564510245,-156.88831904219973,-143.9142700021294
3358081.7078524814,-150.50233909437998,-156.29321851655106,-143.20132720171583
3436301.479151631,-149.8278043014108,-155.67574735920365,-142.4767210488992
3516343.2229798534,-149.13747695434262,-155.03753216732977,-141.7418001083419
3598249.378529205,-148.43299455191655,-154.38028750344765,-140.9978708336265
3682063.373527514,-147.71591200309712,-153.70569975030912,-140.24614158021583
3767829.6472643376,-146.98768414676212,-153.01542066149005,-139.48765411801924
3855593.6741532623,-146.24965464963716,-152.31111319325862,-138.72333546928948
3945401.9878430385,-145.5030504324912,-151.59425934361929,-137.95400458955478
4037302.2058903384,-144.7489806312508,-150.86626937695164,-137.1803803407654
4131343.0550072137,-143.98843908235548,-150.12847279995793,-136.40309014554265
4227574.396896644,-143.22230938977515,-149.38208509832668,-135.6226788540894
4326047.25468987,-142.45137174881998,-148.62820652124162,-134.83961748097178
4426813.839999539,-141.67631084116715,-147.86782431620807,-134.054311574123
4529927.580602984,-140.8977242567032,-147.10181750602345,-133.26710906277464
4635443.148770344,-140.11613102850754,-146.33096340947986,-132.47830749623492
4743416.4902525265,-139.3319799810406,-145.5559452391527,-131.68816063407132
