Frequency,Nominal,Min,Max
15000,1.0000429297511617,0.9989021730676123,1.0011769373091186
15349.394884211311,1.000044955063017,0.9988509119080244,1.0012320339997502
15706.928220763491,1.0000470759157614,0.9987972801915377,1.001289691925707
16072.789578564094,1.0000492968045616,0.9987411704525442,1.001350028433702
16447.172942147772,1.000051622433331,0.9986824705544437,1.0014131660844603
16830.276814529447,1.0000540577239188,0.9986210635050669,1.0014792328690678
17222.304322453238,1.0000566078256277,0.9985568272664704,1.0015483624328443
17623.46332409294,1.0000592781250481,0.998489634559117,1.0016206943068513
18033.96651926119,1.000062074256202,0.9984193526604073,1.0016963741471603
18454.03156218572,1.0000650021109934,0.9983458431976168,1.0017755539819597
18883.881176912502,1.00006806784996,0.998268961935241,1.0018583924665774
19323.743275397002,1.0000712779132817,0.9981885585568415,1.0019450551464637
19773.8510783461,1.0000746390320547,0.9981044764414517,1.0020357147281795
20234.443238874795,1.0000781582397833,0.9980165524346578,1.0021305513583683
20705.763969043262,1.0000818428840597,0.9979246166144937,1.002229752910717
21188.063169341305,1.0000857006383796,0.9978284920522955,1.0023335152808137
21681.596561188904,1.0000897395140527,0.9977279945687145,1.002442042688835
22186.625822523103,1.0000939678721261,0.9976229324851172,1.0025555479899178
22703.418726543114,1.0000983944352486,0.9975131063705955,1.0026742529920365
23232.24928368721,1.0001030282993877,0.9973983087848936,1.002798388781164
23773.397886916693,1.0001078789452742,0.9972783240175502,1.0029281960534442
24327.15146038394,1.0001129562494477,0.9971529278236135,1.0030639254540366
24893.8036115634,1.0001182704947582,0.997021887156287,1.003205837922238
25473.654786926152,1.0001238323801223,0.9968849598969324,1.003354205042429
26067.01243124062,1.0001296530293542,0.9967418945828457,1.003509309400299
26674.19115058383,1.0001357439987884,0.9965924301332817,1.0036714449437565
27295.512879149737,1.000142117283458,0.9964362955741998,1.0038409173478204
27931.307049942996,1.0001487853214617,0.9962732097622169,1.00401804438271
28581.910769448692,1.0001557609961762,0.996102881108315,1.0042031562842784
29247.668996370663,1.0001630576358738,0.9959250073017645,1.0043965961257924
29928.934724533177,1.0001706890102524,0.9957392750348144,1.004598720189995
30626.069170042923,1.0001786693233312,0.9955453597286198,1.0048098983402578
31339.441962810575,1.0001870132020636,0.9953429252608816,1.0050305143895133
32069.431342533462,1.0001957356799562,0.9951316236956074,1.0052609664655372
32816.42435924327,1.000204852174865,0.9949110950153851,1.0055016673710304
33580.81707852507,1.0002143784600541,0.9946809668564354,1.0057530449367984
34363.01479151657,1.000224330627471,0.9944408542466632,1.006015542366207
35163.432229798804,1.0002347250420582,0.994190359346771,1.006289618568926
35982.493785292325,1.0002455782857969,0.9939290711943871,1.0065757484818352
36820.63373527542,1.000256907090004,0.9936565654509918,1.0068744233748137
37678.29647264366,1.0002687282542295,0.9933724041512177,1.0071861511389153
38555.93674153292,1.000281058549921,0.9930761354539155,1.007511456554329
39454.019878430685,1.0002939146068162,0.9927672933941225,1.0078508815352407
40373.02205890369,1.0003073127797732,0.9924453976347786,1.0082049853485244
41313.43055007245,1.0003212689935106,0.9921099532168238,1.0085743448029574
42275.74396896676,1.0003357985624577,0.9917604503059043,1.0089595544052499
43260.47254689904,1.0003509159825235,0.9913963639336862,1.0093612264788956
44268.13839999573,1.0003666346913105,0.9910171537313565,1.009779991241268
45299.275806030186,1.000382966792749,0.9906222636526185,1.0102164968337572
46354.4314877038,1.0003999227416118,0.9902111216830503,1.0106714092988724
47434.16490252563,1.0004175109826225,0.989783139532388,1.011145412496978
48539.04853944417,1.0004357375379265,0.9893377123058068,1.0116392079536438
49669.668222388595,1.0004546055353396,0.9888742181498256,1.0121535146262395
50826.62342088031,1.000474114667975,0.9883920178677816,1.0126890685749903
52010.52756787967,1.000494260573204,0.9878904544989136,1.0132466225189722
53222.008385036235,1.0005150341150955,0.9873688528536887,1.0138269452507396
54461.708215515115,1.0005364205489367,0.9868265189958296,1.014430820873601
55730.28436457579,1.0005583985382935,0.9862627396579589,1.0150590478117885
57028.40944808409,1.0005809389831422,0.9856767815721652,1.0157124375241255
58356.771749142,1.0006040035999815,0.9850678906878263,1.0163918128236544
59716.07558302449,1.000627543169053,0.9844352912348703,1.0170980056656556
61107.0416706168,1.000651495325792,0.983778184568519,1.0178318542090286
62530.4075205502,1.0006757817179437,0.9830957476973681,1.0185941988740475
63986.92782023879,1.0007003042682627,0.9823871313441982,1.019385877002022
65477.37483602478,1.0007249401633382,0.981651457309162,1.0202077155542721
67002.53882264435,1.0007495350149769,0.9808878147847621,1.0210605210468704
68563.22844223113,1.0007738933865677,0.9800952550917389,1.0219450655720868
70160.2711930796,1.0007977655071023,0.9792727840364436,1.0228620672617528
71794.51384839563,1.0008208284578264,0.9784193506921035,1.0238121628359251
73466.8229052668,1.0008426593355386,0.977533830818814,1.02479586885762
75178.08504409071,1.0008626967635368,0.9766150022733272,1.0258135268442188
76929.20759870458,1.0008801854790146,0.9756615084943614,1.0268652252716675
78721.11903746575,1.0008940963479753,0.9746718043013284,1.0279506884651115
80554.76945553775,1.000903010719417,0.9736440755534012,1.0290691179909435
82431.13107864352,1.0009049530612597,0.972576120307522,1.030218965863712
84351.19877855219,1.0008971486495173,0.9714651734518162,1.0313976098159356
86315.99060057336,1.000875672750845,0.9703076486093237,1.032600887848675
88326.54830333816,1.000834942884363,0.9690987593184209,1.0338224305814971
90383.93791115347,1.0007669844524854,0.9678319645663681,1.035052703155998
92489.25027922212,1.0006603696206684,0.9664981595390127,1.036277630296706
94643.60167202877,1.000498686153144,0.9650844980083022,1.037476624099459
96848.13435519811,1.0002583321396306,0.9635726841604765,1.038619758332758
99104.01720113918,0.9999053480900345,0.9619365037864412,1.0396637283406414
101412.44630879704,0.9993908827860529,0.9601382715258979,1.0405460943944111
103774.64563784024,0.9986447372944105,0.9581237460446573,1.0411771230659175
106191.86765762045,0.9975662411900894,0.9558149047703556,1.041540432895397
108665.39401124825,0.9960114991351927,0.9530997787549264,1.0414303142633021
111196.53619513736,0.9937758517401621,0.9498183529012836,1.0405550528348317
113786.63625437728,0.9905703429481449,0.9457434126353982,1.0385634555351682
116437.06749430347,0.9859913409646176,0.940555339620072,1.034964615762276
119149.23520864193,0.9794837334190419,0.9338105822628114,1.0290844476196552
121924.57742461457,0.970301182690402,0.9249054967169462,1.0200209396119782
124764.56566540033,0.9574729925317974,0.9127827479406687,1.006611974115786
127670.70573035613,0.9397971859426133,0.8961003947168601,0.9874676863425157
130644.53849341175,0.9158923396434127,0.8740205312988294,0.9611095648082238
133687.64072006146,0.8843496951603281,0.8453146094794396,0.9258824112812387
136801.62590338607,0.8440157705305814,0.8087447618397948,0.8807154053274868
139988.14511954825,0.7943831621898024,0.760943656090681,0.829122008074817
143248.88790321499,0.7359730700506955,0.7039624765549186,0.7692127164699807
146585.5831433712,0.6705135653111791,0.636946237058009,0.7031957847919401
149999.99999999956,0.6007522958180449,0.5663227408053946,0.6350318713516678
153493.94884211267,0.5299243666418326,0.4961489967351607,0.5642583520082545
157069.28220763447,0.4610997734164684,0.42922176981391763,0.4940797400733713
160727.8957856405,0.39668228128643745,0.36753583048129224,0.42726545418218015
164471.72942147727,0.3381996636957447,0.3122086442562739,0.365770062542054
168302.76814529402,0.2863535081318794,0.2636124893607528,0.3106717658039339
172223.0432245319,0.2412099541536473,0.22159030415822326,0.26231227642297095
176234.6332409289,0.20242043230771314,0.18566543541277677,0.22051457493209042
180339.6651926114,0.16940924729017406,0.15520454209120507,0.184791175782801
184540.3156218567,0.14150787389493485,0.1295271933301711,0.15450442779958348
188838.81176912453,0.11803978746840901,0.10797140956247642,0.12897366221358758
193237.4327539695,0.09836805661631712,0.08992808979891796,0.10753889048590817
197738.51078346046,0.08191812287246891,0.0748556066020366,0.08959401343960172
202344.4323887474,0.06818545633045972,0.06228276959730823,0.07460068573632642
207057.63969043206,0.05673472278298026,0.05180554166723442,0.062090881042152546
211880.63169341246,0.047194651026836856,0.04308080420708115,0.05166341734669628
216815.96561188842,0.03925108608030259,0.035819075299081675,0.04297765234854343
221866.25822523038,0.03263962020391133,0.029777214528234144,0.03574619759444221
227034.18726543046,0.02713852785587488,0.024751629572592925,0.029727651872173695
232322.49283687142,0.02256234248111689,0.020572203079466736,0.02471984993433036
237733.97886916623,0.018756195856647267,0.0170969960568083,0.02055383468543858
243271.51460383867,0.01559092523858077,0.014207700439677975,0.01708860379216422
248938.03611563324,0.012958896753264707,0.01180577470421498,0.014206601011742391
254736.54786926077,0.010770469514692845,0.009809182272450824,0.011809885334458672
260670.12431240542,0.008951018699007196,0.00814965131207185,0.009816897729738247
266741.91150583746,0.007438438586560998,0.006770379763515698,0.008159744535487097
272955.1287914965,0.00618105352714278,0.005624117355023393,0.00678192190960499
279313.0704994291,0.005135873242129997,0.00467156502963629,0.0056364137161682435
285819.107694486,0.004267137461069941,0.0038800406075322176,0.004684103845633618
292476.68996370566,0.0035451029228442165,0.003222367181049251,0.0038924523047481788
299289.34724533075,0.0029450329674694693,0.0026759475185334043,0.003234392015078126
306260.69170042814,0.002446356226411855,0.002221993619347361,0.002687409969076159
313394.4196281046,0.0020319663152743666,0.001844885572857382,0.002232782196388436
320694.3134253335,0.001687639019644003,0.0015316381173633884,0.001854936949129267
328164.2435924315,0.0014015473373100132,0.0012714568678996044,0.0015409247116499373
335808.1707852495,0.0011638579942640126,0.0010553691789914634,0.0012799771744735305
343630.1479151645,0.0009663957780834237,0.0008759171161079948,0.001063140277075872
351634.3222979868,0.0008023643113401533,0.0007269021039537935,0.0008829689054250797
359824.93785292195,0.0006661137901691489,0.0006031725668984456,0.0007332729030061737
368206.33735275286,0.0005529477997244763,0.000500447333113704,0.0006089057836390383
376782.96472643525,0.0004589626404992255,0.00041516878711659553,0.0005055889764141449
385559.36741532775,0.00038091370091365755,0.00034438076559564393,0.00041976563465873795
394540.1987843054,0.0003161043287587441,0.0002856270323453751,0.0003484790417019048
403730.2205890354,0.00026229341766103713,0.00023686686806258304,0.0002892714796334986
413134.30550072296,0.00021761856032625834,0.00019640489322970324,0.00024010012111981295
422757.439689666,0.00018053214930879434,0.0001628327269837579,0.00019926708193294604
432604.7254689887,0.00014974824627884202,0.00013498048813005679,0.00016536125260177702
442681.3839999556,0.0001241984070845651,0.00011187647996010092,0.00013720992770252505
452992.75806030014,0.00010299495471857752,0.00009271367964235423,0.00011383858427855879
463544.3148770362,0.00008540044591135145,0.00007682188513886805,0.00009443743796108178
474341.6490252545,0.0000708022880777061,0.00006364456574012349,0.00007833363592305198
485390.4853944399,0.000058691638886853636,0.000052719622963559286,0.00006496813763924132
496696.68222388404,0.00004864586676390237,0.000043663402186507,0.000053876494040810436
508266.2342088011,0.00004031397211567304,0.00003615740652402004,0.00004467286845024047
520105.27567879466,0.00003340447012971462,0.000029937256896160907,0.00003703675316294534
532220.0838503604,0.00002767532005430226,0.000024783519102796795,0.00003070192745186813
544617.0821551491,0.000022925555784883446,0.00002051408265368862,0.000025447279229116732
557302.8436457558,0.000018988330735468403,0.000016977829264837602,0.000021089176199451948
570284.0944808386,0.00001572513833942529,0.0000140493731400467,0.000017475125244045208
583567.7174914177,0.000013021009748525154,0.000011624691916366632,0.000014478502776759608
597160.7558302425,0.000010780523751014742,0.000009617497717136454,0.000011994175414973946
611070.4167061656,0.000008924491748089287,0.000007956223169510556,0.000009934860747253438
625304.0752054995,0.0000073872037610993525,0.000006581518372130413,0.000008228103296557207
639869.2782023853,0.0000061141406775905206,0.0000054441723644895525,0.000006813761831815363
654773.7483602451,0.000005060073938734366,0.00000450307615497385,0.000005641921689497502
670025.3882264408,0.000004187487169483801,0.0000037244718970379573,0.0000046711603266652365
685632.2844223086,0.0000034652653097348743,0.0000030807682072840116,0.000003867106434142763
701602.7119307932,0.0000028676059974229595,0.000002548696417540161,0.0000032012430056336437
717945.1384839533,0.0000023731155968320257,0.00000210898080915848,0.0000026499131292360743
734668.229052665,0.0000019640586186224434,0.000001745656486692498,0.0000021934942274946386
751780.8504409039,0.0000016257345594019079,0.000001445503367768502,0.0000018157122584638459
769292.0759870426,0.0000013459605787257184,0.0000011975765780072706,0.0000015030722008643397
787211.1903746541,0.0000011146420804536605,9.928168787321707e-7,0.0000012443851456538303
805547.6945553742,9.234162983464561e-7,8.237275294488687e-7,0.0000010303756409148433
824311.3107864318,7.653565065491311e-7,6.841062920589084e-7,8.533557005729038e-7
843511.9877855184,6.347265705725364e-7,5.688231987420643e-7,7.069541846538307e-7
863159.90600573,5.267772953822715e-7,4.7363629630231597e-7,5.85892168197096e-7
883265.4830333779,4.3757747396490147e-7,3.9503890128955314e-7,4.857965029512454e-7
903839.379111531,3.63873741924688e-7,3.3013299790657843e-7,4.0304509495945803e-7
924892.5027922174,3.02974342557715e-7,2.765243224251044e-7,3.346385173105197e-7
946436.0167202839,2.5265273677900355e-7,2.3223543501131726e-7,2.7809348827536085e-7
968481.3435519771,2.1106768177694844e-7,1.9563370863718238e-7,2.3135450202872634e-7
991040.1720113877,1.7669697505884015e-7,1.6508588008269806e-7,1.9272052815662733e-7
1014124.4630879661,1.4828253634913146e-7,1.3888154095495427e-7,1.6200984655167402e-7
1037746.456378398,1.247848949987676e-7,1.171472688327068e-7,1.3669581483399654e-7
1061918.6765762,1.0534547878365219e-7,9.846564505324235e-8,1.1638171141127956e-7
1086653.9401124779,8.925537253958004e-8,8.301731292900534e-8,9.973919510017455e-8
1111965.3619513689,7.592944141717597e-8,7.023805440551616e-8,8.591158188095698e-8
1137866.362543768,6.488490147589332e-8,5.956667966285327e-8,7.44068891774883e-8
1164370.6749430296,5.572357638672718e-8,5.0637659677613745e-8,6.481985409645771e-8
1191492.3520864141,4.811720860008618e-8,4.324017887042915e-8,5.697072789705692e-8
1219245.7742461406,4.179530096702731e-8,3.710732112436219e-8,5.061223000786339e-8
1247645.656653998,3.653505422419103e-8,3.198452661928205e-8,4.530454078411228e-8
1276707.057303556,3.21530400694022e-8,2.7670757650837563e-8,4.086959935009223e-8
1306445.384934112,2.8498311330259206e-8,2.4083449040304358e-8,3.716110642117183e-8
1336876.407200609,2.5446702073660672e-8,2.1096994546937788e-8,3.405886041645802e-8
1368016.259033855,2.289611315663676e-8,1.860798640695835e-8,3.1464081271841664e-8
1399881.4511954768,2.0762614110080473e-8,1.6531334711038762e-8,2.9295553421639134e-8
1432488.8790321439,1.897722156703479e-8,1.479705733290088e-8,2.7486448555237643e-8
1465855.8314337058,1.748323869556938e-8,1.3347625469013946e-8,2.598171275695174e-8
1499999.9999999895,1.6234060119883565e-8,1.2135769729063993e-8,2.4735922401145426e-8
1534939.4884211204,1.5191363330921568e-8,1.1122668183323824e-8,2.371152943677492e-8
1570692.8220763383,1.4323621205221286e-8,1.0276451389163759e-8,2.2877430062278887e-8
1607278.9578563983,1.3604881471866943e-8,9.570970661279532e-9,2.2207801773033034e-8
1644717.2942147658,1.3013768207065559e-8,8.984785121908317e-9,2.1681162798617612e-8
1683027.681452933,1.253266803539192e-8,8.500330706425001e-9,2.1279615418029486e-8
1722230.4322453116,1.2147069961029665e-8,8.10324058643684e-9,2.0988240874666775e-8
1762346.3324092813,1.1845032884116466e-8,7.78179163729299e-9,2.0794618877151112e-8
1803396.651926106,1.1616759086036341e-8,7.52645581014193e-9,2.0688449172034384e-8
1845403.1562185585,1.1454255472251229e-8,7.3245354693693905e-9,2.066125655522486e-8
1888388.1176912368,1.1351067289782066e-8,7.163092991059502e-9,2.071949748523128e-8
1932374.3275396866,1.1302071503796558e-8,7.04656401911589e-9,2.085608163503039e-8
1977385.107834596,1.1303319107282066e-8,6.970730272474316e-9,2.1060946978720377e-8
2023444.3238874653,1.1351917405657978e-8,6.932310627666029e-9,2.1332260968858866e-8
2070576.3969043116,1.144594480099615e-8,6.928850415389869e-9,2.166951137471099e-8
2118806.3169341153,1.1584391824256807e-8,6.958638003739475e-9,2.207349084613036e-8
2168159.6561188744,1.1767123152632526e-8,7.0206433324494245e-9,2.254630251891935e-8
2218662.582252294,1.1994856131688123e-8,7.114473864327493e-9,2.309138233156234e-8
2270341.8726542946,1.2269151936811406e-8,7.240344096682382e-9,2.381644800998528e-8
2323224.928368704,1.259241600473158e-8,7.399055356167394e-9,2.4735159552614483e-8
2377339.7886916515,1.2967904801910845e-8,7.591983117599344e-9,2.5778142329731076e-8
2432715.146038376,1.3399736434992165e-8,7.814657479956262e-9,2.695816187580017e-8
2489380.361156321,1.3892903107372988e-8,8.025125008302065e-9,2.8289594442698435e-8
2547365.4786925963,1.4453284028101994e-8,8.268789363112916e-9,2.9788447940801124e-8
2606701.2431240426,1.5087658100211405e-8,8.548316327310961e-9,3.147239016860165e-8
2667419.115058363,1.5803716534664725e-8,8.866921153944985e-9,3.3360789355723105e-8
2729551.287914953,1.661007639427398e-8,9.228377943036018e-9,3.547506588198565e-8
2793130.7049942785,1.751629687951579e-8,9.637028960587929e-9,3.783788625584607e-8
2858191.0769448476,1.8532900822935613e-8,1.009779401676239e-8,4.047415799718526e-8
2924766.899637044,1.967140427104622e-8,1.0616180540775169e-8,4.34111242811148e-8
2992893.472453295,2.094435714965839e-8,1.1198295479473017e-8,4.6678076636772e-8
3062606.9170042686,2.236539783085223e-8,1.1850860543351184e-8,5.03066643212355e-8
3133944.196281033,2.394932400215725e-8,1.2581232574340172e-8,5.433126034610672e-8
3206943.134253321,2.5712181676492353e-8,1.3397430882746373e-8,5.8789302964244925e-8
3281642.4359243014,2.767137358728153e-8,1.430816856320451e-8,6.372157473840646e-8
3358081.7078524814,2.984578769017217e-8,1.532283320601977e-8,6.917252673994115e-8
3436301.479151631,3.225594611557843e-8,1.6451770102637543e-8,7.519066876262097e-8
3516343.2229798534,3.492417472196925e-8,1.7706119526591342e-8,8.182951828675274e-8
3598249.378529205,3.7874793389840386e-8,1.909790043359518e-8,8.91469436664955e-8
3682063.373527514,4.113432734573868e-8,2.0640252814077098e-8,9.72059661104176e-8
3767829.6472643376,4.473174007553363e-8,2.234750107935152e-8,1.0607603894765817e-7
3855593.6741532623,4.8698688734542735e-8,2.4235073452585842e-8,1.1583324593824775e-7
3945401.9878430385,5.306980335244343e-8,2.632006956608221e-8,1.2656096294681558e-7
4037302.2058903384,5.788299153582566e-8,2.862111384534526e-8,1.3835057962109657e-7
4131343.0550072137,6.317977077369801e-8,3.115848693164746e-8,1.5130228703474214e-7
4227574.396896644,6.900563084331839e-8,3.395437533533616e-8,1.65525937878604e-7
4326047.25468987,7.541042919441248e-8,3.703306640752278e-8,1.8114198642190361e-7
