Frequency,Nominal,Min,Max
15000,-0.5324848435229828,-0.5386766282911503,-0.5264158062609638
15349.394884211311,-0.5449210003682171,-0.5512583608723163,-0.5387093663477796
15706.928220763491,-0.557649207205725,-0.5641356316807433,-0.5512915661503737
16072.789578564094,-0.5706764384531021,-0.5773155034400089,-0.5641692942091997
16447.172942147772,-0.5840098434926491,-0.5908052164113863,-0.5773496115568727
16830.276814529447,-0.5976567516699849,-0.6046121934907469,-0.5908397566239787
17222.304322453238,-0.6116246774786729,-0.618744045496691,-0.6046471503260336
17623.46332409294,-0.6259213259406079,-0.6332085766600132,-0.6187794013410164
18033.96651926119,-0.6405545981926061,-0.6480137903253171,-0.6332443115875521
18454.03156218572,-0.6555325972903419,-0.6631678948763506,-0.6480498819145127
18883.881176912502,-0.6708636342415804,-0.6786793098974443,-0.6632043180135698
19323.743275397002,-0.6865562342815051,-0.6945566725843406,-0.6787160365670398
19773.8510783461,-0.7026191434038574,-0.7108088444186512,-0.6945936716442613
20234.443238874795,-0.7190613351626143,-0.7274449181212361,-0.7108460813607007
20705.763969043262,-0.7358920177600207,-0.7444742249009298,-0.7274823548150293
21188.063169341305,-0.7531206414379769,-0.7619063420162828,-0.7445118193205523
21681.596561188904,-0.7707569061910675,-0.779751100669322,-0.7619440479486062
22186.625822523103,-0.7888107698209231,-0.798018594251812,-0.7797888674028801
22703.418726543114,-0.8072924563531452,-0.8167191869660864,-0.7980563662450955
23232.24928368721,-0.8262124648396728,-0.8358635228442697,-0.8167569034940568
23773.397886916693,-0.8455815785713148,-0.8554625351916127,-0.8359011176218505
24327.15146038394,-0.8654108747271484,-0.8755274564817421,-0.8554999359728659
24893.8036115634,-0.8857117344896737,-0.8960698287339247,-0.8755645846333939
25473.654786926152,-0.9064958536569965,-0.9171015144049184,-0.8961065987818506
26067.01243124062,-0.9277752537859315,-0.9386347078307521,-0.917137833552173
26674.19115058383,-0.9495622939028094,-0.9606819472567691,-0.9386704754456804
27295.512879149737,-0.9718696828219008,-0.9832561274975953,-0.9607170543297163
27931.307049942996,-0.994710492114893,-1.0063705132723386,-0.9832904560647086
28581.910769448692,-1.0180981697786537,-1.0300387532643431,-1.0064039358049335
29247.668996370663,-1.0420465546527766,-1.0542748949592786,-1.0300711320223277
29928.934724533177,-1.06656989164307,-1.0790934003202457,-1.0543060813071277
30626.069170042923,-1.091682847812331,-1.1045091623640295,-1.079123234004057
31339.441962810575,-1.1174005294055003,-1.1305375227086591,-1.1045374707482583
32069.431342533462,-1.1437384998826423,-1.1571942901691485,-1.1305641199711922
32816.42435924327,-1.170712799040321,-1.1844957604857373,-1.157218976453518
33580.81707852507,-1.198339963309812,-1.2124587372772937,-1.184518321009409
34363.01479151657,-1.2266370473294073,-1.2411005543218039,-1.2124789413951764
35163.432229798804,-1.255621646897953,-1.2704390992762953,-1.2411181545443783
35982.493785292325,-1.2853119234277788,-1.3004928389601815,-1.2704538302420834
36820.63373527542,-1.3157266300275776,-1.3312808463391186,-1.3005044163626724
37678.29647264366,-1.3468851393597792,-1.3628228293612397,-1.3312889658087796
38555.93674153292,-1.378807473432657,-1.395139161814253,-1.362827165303819
39454.019878430685,-1.4115143355052358,-1.4282509163907726,-1.3951393662073501
40373.02205890369,-1.4450271443032165,-1.4621799001706424,-1.4282466175415445
41313.43055007245,-1.479368070767066,-1.4969486927533096,-1.4621707014385814
42275.74396896676,-1.5145600775795334,-1.5325806873011476,-1.496934171243401
43260.47254689904,-1.5506269617497432,-1.5691001347863482,-1.5325603925342612
44268.13839999573,-1.5875934005652326,-1.606532191770557,-1.5690735873556685
45299.275806030186,-1.6254850012627238,-1.6449029720884574,-1.6064988819951764
46354.4314877038,-1.6643283548139052,-1.6842396028551434,-1.644862358678039
47434.16490252563,-1.7041510942752014,-1.724570285273576,-1.6841911116029538
48539.04853944417,-1.7449819582118122,-1.765924360784131,-1.7245133077992096
49669.668222388595,-1.7868508597778883,-1.8083323831752083,-1.7658582533522065
50826.62342088031,-1.8297889621186383,-1.8518261973641854,-1.8082564656221751
52010.52756787967,-1.8738287608590123,-1.8964390256646317,-1.8517397521725658
53222.008385036235,-1.9190041745604447,-1.9422055624819863,-1.8963412972326537
54461.708215515115,-1.9653506441661048,-1.989162078530392,-1.9420957566470687
55730.28436457579,-2.012905242620777,-2.037346535843213,-1.9890393624176197
57028.40944808409,-2.0617067960503466,-2.086798715066057,-2.0372100381254366
58356.771749142,-2.1117960181253688,-2.13756035678226,-2.0866475267410376
59716.07558302449,-2.163215659523171,-2.1896753189375517,-2.137393532595194
61107.0416706168,-2.2160106747556103,-2.24318975281693,-2.1894918796053595
62530.4075205502,-2.27022840906055,-2.2981523004995297,-2.2429886882448713
63986.92782023879,-2.3259188085838884,-2.354614317298935,-2.2979325742227155
65477.37483602478,-2.38313465773067,-2.41263012341429,-2.35437487243272
67002.53882264435,-2.4419318483698893,-2.472257289907498,-2.4123698904607758
68563.22844223113,-2.502369686578202,-2.5335569652279997,-2.471975196843061
70160.2711930796,-2.564511243853495,-2.5965942498858583,-2.5332519503924797
71794.51384839563,-2.628423761283653,-2.661438628596515,-2.5962652783117823
73466.8229052668,-2.6941791170986304,-2.728164471375046,-2.6610847125618395
75178.08504409071,-2.761854370463605,-2.796851617752435,-2.727784696141427
76929.20759870458,-2.8315323974080253,-2.86758606165298,-2.796445173670489
78721.11903746575,-2.903302638574332,-2.940460758666334,-2.8671522840850936
80554.76945553775,-2.977261983178689,-3.0155765826472543,-2.939999177506248
82431.13107864352,-3.053515819390218,-3.093043464970998,-3.015086983614772
84351.19877855219,-3.1321792884430337,-3.1729817575417476,-3.0925259653404247
86315.99060057336,-3.2133787883537206,-3.255523869917454,-3.172436899533052
88326.54830333816,-3.297253783183801,-3.3408162416506624,-3.2549527356426506
90383.93791115347,-3.3839589851966085,-3.429021722810809,-3.340220594255352
92489.25027922212,-3.4736669893942484,-3.5203224476973762,-3.4284041792476647
94643.60167202877,-3.5665714513161655,-3.614923296893813,-3.519686689333348
96848.13435519811,-3.6628909066267594,-3.713056046948113,-3.614274324719637
99104.01720113918,-3.762873329185484,-3.814984297474126,-3.71240048821017
101412.44630879704,-3.866801502563567,-3.9210092287253078,-3.8143307695076984
103774.64563784024,-3.974999220047912,-4.031476155105972,-3.9203687626154853
106191.86765762045,-4.087838198858954,-4.146781662019363,-4.030862674789844
108665.39401124825,-4.205745344121498,-4.267380780670525,-4.146212500659969
111196.53619513736,-4.329209545589999,-4.3937930689089235,-4.266877190919568
113786.63625437728,-4.458786414179366,-4.526605484998873,-4.393380639991042
116437.06749430347,-4.5950981048566515,-4.66646839338134,-4.526314307767505
119149.23520864193,-4.738823459251905,-4.81407878916515,-4.666332703938364
121924.57742461457,-4.890671081343438,-4.970141960877153,-4.814135666934808
124764.56566540033,-5.051324999043528,-5.135300080180723,-4.970428475011442
127670.70573035613,-5.221350651362746,-5.310015767089951,-5.13584814249015
130644.53849341175,-5.401051313427272,-5.494404828648758,-5.310844041782315
133687.64072006146,-5.590277109319777,-5.6880309387771835,-5.495507685885348
136801.62590338607,-5.788215584927735,-5.889708670608274,-5.689365953413062
139988.14511954825,-5.993231449244963,-6.097399261427302,-5.891186463932546
143248.88790321499,-6.2028516249666605,-6.3082940217127215,-6.098881355355606
146585.5831433712,-6.413971499862736,-6.51912695387085,-6.3096034994242185
149999.99999999956,-6.623268749126142,-6.726646840813496,-6.520071645823796
153493.94884211267,-6.82769605362553,-6.92808396854758,-6.727047832214861
157069.28220763447,-7.02487479022874,-7.121450032507548,-6.927798947473469
160727.8957856405,-7.213273146357108,-7.305608525491771,-7.120384340459774
164471.72942147727,-7.392168679714922,-7.480277343299473,-7.303713608351287
168302.76814529402,-7.561477360416836,-7.646139278473023,-7.4774261845543695
172223.0432245319,-7.721543589458056,-7.802874899829115,-7.6416893678997475
176234.6332409289,-7.872954053433627,-7.951153287586553,-7.796995527694966
180339.6651926114,-8.016400350603265,-8.091703128419853,-7.944000420308213
184540.3156218567,-8.152590382450681,-8.22524070977366,-8.08341241704699
188838.81176912453,-8.282197949559112,-8.35243187210731,-8.215925569423112
193237.4327539695,-8.405838379781374,-8.473875871216942,-8.34213426801172
197738.51078346046,-8.524060182385425,-8.59010208239318,-8.462331114704158
202344.4323887474,-8.637345687251328,-8.701573505561601,-8.577430632282226
207057.63969043206,-8.746116170155018,-8.808693369773954,-8.687869838647167
211880.63169341246,-8.85073879307039,-8.911812723871451,-8.794030254676047
216815.96561188842,-8.951533881436239,-9.011237896863843,-8.896244864490557
221866.25822523038,-9.048781789707315,-9.10723730157179,-8.994804948574778
227034.18726543046,-9.14272902928635,-9.200047386322442,-9.089966321429047
232322.49283687142,-9.233593565075635,-9.28987771443942,-9.181954797889253
237733.97886916623,-9.32156930570909,-9.376915235662507,-9.2709708681062
243271.51460383867,-9.406829866599809,-9.461327847650619,-9.357193637244482
248938.03611563324,-9.489531703569128,-9.54326735307519,-9.440784117215724
254736.54786926077,-9.569816715140018,-9.622871912070973,-9.521887965041174
260670.12431240542,-9.647814403292994,-9.700268078498052,-9.600637757781975
266741.91150583746,-9.723643670915576,-9.775572495580535,-9.677154884122885
272955.1287914965,-9.797414322101483,-9.848893314017785,-9.751551121272826
279313.0704994291,-9.869228320209844,-9.920331384497935,-9.823929954689838
285819.107694486,-9.9391808487244,-9.989981266971096,-9.894387688082748
292476.68996370566,-10.007361211588607,-10.05793209105171,-9.96301438247845
299289.34724533075,-10.07385360276095,-10.124268295368969,-10.029894655884046
306260.69170042814,-10.138737769073298,-10.189070268373804,-10.095108369098773
313394.4196281046,-10.202089585895703,-10.252414908838482,-10.158731218371909
320694.3134253335,-10.263981561430066,-10.314376120864566,-10.220835251682924
328164.2435924315,-10.324483282508218,-10.375025255484758,-10.281489322273233
335808.1707852495,-10.383661812416069,-10.434431508768611,-10.340759490540655
343630.1479151645,-10.441582049387387,-10.49266228460927,-10.398709383395456
351634.3222979868,-10.498307052912459,-10.549783528988492,-10.45540051857001
359824.93785292195,-10.55389834381113,-10.605860041417198,-10.510892600090472
368206.33735275286,-10.608416183064806,-10.66095576837171,-10.565243790092945
376782.96472643525,-10.661919833638425,-10.71513408284509,-10.61851096134541
385559.36741532775,-10.714467808912469,-10.768458053572765,-10.67074993417916
394540.1987843054,-10.766118110855784,-10.820990707042505,-10.722015701005887
403730.2205890354,-10.8169284606776,-10.87279528503783,-10.772362641173487
413134.30550072296,-10.866956524382507,-10.923935500172128,-10.821844728573717
422757.439689666,-10.916260135399167,-10.974475791632592,-10.87051573414222
432604.7254689887,-10.96489751624989,-11.02448158315573,-10.918429425172501
442681.3839999556,-11.012927501063086,-11.074019545087937,-10.96563976318993
452992.75806030014,-11.06040976059542,-11.123157862235225,-11.012201101990877
463544.3148770362,-11.107405031317102,-11.171966509065546,-11.058168387338723
474341.6490252545,-11.153975350015637,-11.220517533685292,-11.103597359716261
485390.4853944399,-11.200184295283004,-11.268885351857206,-11.14854476145777
496696.68222388404,-11.246097237162399,-11.31714705214857,-11.193068549518456
508266.2342088011,-11.291781596135513,-11.365382713081553,-11.237228115079166
520105.27567879466,-11.337307112521698,-11.413675732885793,-11.2810845111254
532220.0838503604,-11.382746127226937,-11.462113172106566,-11.324700689075472
544617.0821551491,-11.428173874611643,-11.510786108876149,-11.368141745457798
557302.8436457558,-11.473668788028558,-11.55979000608188,-11.41147517954353
570284.0944808386,-11.519312818298829,-11.609225088926515,-11.454771162720082
583567.7174914177,-11.565191765025256,-11.659196730431574,-11.498102820232134
597160.7558302425,-11.61139562016235,-11.709815841231526,-11.541546525707261
611070.4167061656,-11.658018922642688,-11.761199258484464,-11.585182208606913
625304.0752054995,-11.705161122062169,-11.813470126812922,-11.629093674380686
639869.2782023853,-11.75292694840861,-11.86675826180521,-11.673368936629181
654773.7483602451,-11.801426783527322,-11.921200483663446,-11.71810055996848
670025.3882264408,-11.850777028391754,-11.976940904983442,-11.76338601150276
685632.2844223086,-11.901100458217595,-12.034131152298377,-11.809328017808282
701602.7119307932,-11.952526554944416,-12.092930495827716,-11.856034923061813
717945.1384839533,-12.005191803525522,-12.153505855787714,-11.903621042350858
734668.229052665,-12.059239934724435,-12.216031646634256,-11.952207002214802
751780.8504409039,-12.114822092633055,-12.2806894128059,-12.00192005800985
769292.0759870426,-12.172096899834706,-12.347667201135229,-12.05289437468573
787211.1903746541,-12.231230387005477,-12.417158606524058,-12.105271253925846
805547.6945553742,-12.292395746812128,-12.489361419438865,-12.159199286258257
824311.3107864318,-12.355772864359956,-12.564475797357387,-12.214834401633436
843511.9877855184,-12.42154756845872,-12.642701879027712,-12.272339786063204
863159.90600573,-12.489910540117467,-12.7242367623575,-12.331885625262991
883265.4830333779,-12.561055807755677,-12.809270776533587,-12.393648628974976
903839.379111531,-12.635178753813145,-12.897982999598106,-12.457811282060193
924892.5027922174,-12.712473556391787,-12.990536007310924,-12.524560761029111
946436.0167202839,-12.793129994395414,-13.087069890402898,-12.5940874482119
968481.3435519771,-12.877329557925295,-13.18769564666475,-12.666582971387172
991040.1720113877,-12.96524083029674,-13.292488140678968,-12.742237695951898
1014124.4630879661,-13.057014146736732,-13.401478922650256,-12.82123760163978
1037746.456378398,-13.152775589674015,-13.514649299246267,-12.903760488808299
1061918.6765762,-13.252620452022486,-13.631924139092044,-12.98997148309287
1086653.9401124779,-13.35660638578566,-13.753166954997958,-13.08001784434957
1111965.3619513689,-13.464746547696933,-13.878176814341076,-13.17402313818228
1137866.362543768,-13.577003145960454,-14.006687571810811,-13.272080896384216
1164370.6749430296,-13.693281867576072,-14.138369787412401,-13.374247974220552
1191492.3520864141,-13.813427706419194,-14.27283549339249,-13.480537902024977
1219245.7742461406,-13.937222700644783,-14.40964572865422,-13.590914616271267
1247645.656653998,-14.064386011329843,-14.548320503793704,-13.70528702721981
1276707.057303556,-14.19457662955412,-14.688350636004103,-13.823504919816543
1306445.384934112,-14.327398796820132,-14.829210738746907,-13.945356675282527
1336876.407200609,-14.462409988445742,-14.970372590195637,-14.070569230651074
1368016.259033855,-14.59913107650281,-15.111318140361018,-14.198810559171529
1399881.4511954768,-14.737058096211856,-15.251551531940404,-14.32969476520525
1432488.8790321439,-14.875674919073003,-15.390609671806342,-14.462789665357095
1465855.8314337058,-15.014466104039034,-15.528071061409305,-14.597626505545211
1499999.9999999895,-15.15292925199749,-15.663562743877343,-14.733711277208187
1534939.4884211204,-15.290586308142078,-15.79676533533261,-14.870536975054602
1570692.8220763383,-15.426993409840792,-15.927416175534361,-15.007596100363067
1607278.9578563983,-15.561749031328398,-16.055310668288886,-15.144392756722986
1644717.2942147658,-15.694500305652094,-16.180301900655113,-15.280453791327876
1683027.681452933,-15.824947496630612,-16.302298646004203,-15.415338575724075
1722230.4322453116,-15.952846650525887,-16.421261877663085,-15.548647164524947
1762346.3324092813,-16.078010489456172,-16.537199948276214,-15.680026694827449
1803396.651926106,-16.20030763014018,-16.65016262107875,-15.809175980614983
1845403.1562185585,-16.319660233423487,-16.76023416719296,-15.935848315567341
1888388.1176912368,-16.43604021727167,-16.8675257635403,-16.05985253369572
1932374.3275396866,-16.549464197558052,-16.972167437988965,-16.18105240255684
1977385.107834596,-16.659987352404528,-17.074299814222467,-16.29936444870126
2023444.3238874653,-16.76769643198147,-17.17406591272919,-16.414754344303347
2070576.3969043116,-16.872702153583706,-17.271603270311928,-16.52723201684647
2118806.3169341153,-16.975131231718454,-17.367036650366334,-16.636845676060695
2168159.6561188744,-17.075118297813894,-17.460471627841116,-16.743674979284876
2218662.582252294,-17.172797968035724,-17.5519893398804,-16.84782357521864
2270341.8726542946,-17.26829732372283,-17.6416426856141,-16.94941127678334
2323224.928368704,-17.361729077534555,-17.729454224803554,-17.04856611920952
2377339.7886916515,-17.453185706116408,-17.815415955240443,-17.14541656325689
2432715.146038376,-17.542734829604825,-17.89949103885241,-17.24008410854448
2489380.361156321,-17.63041609954496,-17.98161740150669,-17.332676588653158
2547365.4786925963,-17.71623980945565,-18.061712967341066,-17.423282424683855
2606701.2431240426,-17.800187359148286,-18.13968212992139,-17.511966110399346
2667419.115058363,-17.88221358452778,-18.215422938325226,-17.598765180564186
2729551.287914953,-17.96225081782542,-18.288834411504553,-17.683688865138464
2793130.7049942785,-18.04021438746343,-18.359823403221004,-17.766718549209315
2858191.0769448476,-18.116009127166006,-18.428310521375202,-17.847810042045424
2924766.899637044,-18.189536366605775,-18.49423474344225,-17.926897517291614
2992893.472453295,-18.26070084080751,-18.557556537387224,-18.00389883781152
3062606.9170042686,-18.32941699069573,-18.618259465315553,-18.07872184682075
3133944.196281033,-18.395614225979195,-18.67635038999676,-18.151271116126317
3206943.134253321,-18.45924086471925,-18.731858506279696,-18.221454610949003
3281642.4359243014,-18.520266624944103,-18.784833474947234,-18.289189766018527
3358081.7078524814,-18.578683695883747,-18.835342949506007,-18.354408562836042
3436301.479151631,-18.63450653904211,-18.88346976636978,-18.417061334838216
3516343.2229798534,-18.68777065091591,-18.92930902772353,-18.477119180689435
3598249.378529205,-18.738530557827204,-18.972965255282286,-18.534575010995738
3682063.373527514,-18.786857314670566,-19.014549741087777,-18.58944337083416
3767829.6472643376,-18.83283575328194,-19.054178174375917,-18.64175925877408
3855593.6741532623,-18.87656168365517,-19.091968584595854,-18.691576200664827
3945401.9878430385,-18.918139202237423,-19.128039610894536,-18.738963838560608
4037302.2058903384,-18.957678213494642,-19.162509087376424,-18.78400527100429
4131343.0550072137,-18.995292228601166,-19.195492919975607,-18.8267943408889
4227574.396896644,-19.031096470812933,-19.227104223288055,-18.86743302061493
4326047.25468987,-19.065206291354603,-19.25745268265822,-18.90602899839466
4426813.839999539,-19.09773588184799,-19.286644106831883,-18.942693528908173
4529927.580602984,-19.128797258181443,-19.314780138465963,-18.97753957839946
4635443.148770344,-19.158499484811557,-19.34195809288198,-19.010680269292703
4743416.4902525265,-19.186948106398305,-19.36827089905705,-19.042227611962577
4853904.85394438,-19.21424475419002,-19.39380712055509,-19.072291500258807
4966966.822238822,-19.24048689672417,-19.41865103765297,-19.10097894140086
5082662.3420879925,-19.265767707463816,-19.442882775164463,-19.12839348859508
5201052.756787928,-19.29017602542758,-19.46657864201164,-19.154634845024823
5322200.838503584,-19.313796388346347,-19.48986343162514,-19.179798609789238
