Frequency,Nominal,Min,Max
15000,0.000005649839664546474,0.000005715536541374139,0.000005585445179209194
15349.394884211311,0.000005650181747059699,0.000005715892627390247,0.000005585774500618517
15706.928220763491,0.000005650540105018292,0.000005716265656423482,0.000005586119488450787
16072.789578564094,0.000005650915520416038,0.000005716656442675343,0.000005586480895252385
16447.172942147772,0.0000056513088135645,0.000005717065840256808,0.000005586859510426152
16830.276814529447,0.000005651720845043208,0.000005717494745220934,0.00000558725616210536
17222.304322453238,0.0000056521525177561695,0.0000057179440977064036,0.000005587671719129666
17623.46332409294,0.000005652604779101124,0.000005718414884198785,0.000005588107093129227
18033.96651926119,0.0000056530786232585655,0.000005718908139916766,0.000005588563240723605
18454.03156218572,0.0000056535750936078695,0.000005719424951331153,0.000005589041165842554
18883.881176912502,0.000005654095285278522,0.000005719966458824908,0.000005589541922176332
19323.743275397002,0.000005654640347845027,0.000005720533859503257,0.000005590066615763643
19773.8510783461,0.000005655211488174632,0.000005721128410163414,0.0000055906164077260455
20234.443238874795,0.000005655809973437752,0.000005721751430434315,0.000005591192517158202
20705.763969043262,0.000005656437134291735,0.00000572240430609744,0.000005591796224184134
21188.063169341305,0.000005657094368249386,0.000005723088492600781,0.00000559242887319038
21681.596561188904,0.0000056577831432446,0.000005723805518778809,0.0000055930918762478415
22186.625822523103,0.000005658505001408375,0.000005724556990792474,0.000005593786716734974
22703.418726543114,0.000005659261563069654,0.000005725344596304258,0.000005594514953176066
23232.24928368721,0.000005660054530996445,0.000005726170108904639,0.000005595278223309349
23773.397886916693,0.000005660885694894113,0.000005727035392807615,0.000005596078248401022
24327.15146038394,0.000005661756936179033,0.000005727942407834393,0.00000559691683782252
24893.8036115634,0.000005662670233047401,0.000005728893214706118,0.00000559779589390981
25473.654786926152,0.000005663627665860643,0.0000057298899806680875,0.000005598717417125167
26067.01243124062,0.000005664631422870774,0.0000057309349854701116,0.000005599683511543606
26674.19115058383,0.000005665683806311159,0.000005732030627729672,0.000005600696390688111
27295.512879149737,0.0000056667872388802775,0.000005733179431707087,0.000005601758383739969
27931.307049942996,0.000005667944270648806,0.000005734384054524489,0.000005602871942152879
28581.910769448692,0.00000566915758642297,0.0000057356472938633935,0.000005604039646702152
29247.668996370663,0.000005670430013600338,0.000005736972096178992,0.000005605264215003294
29928.934724533177,0.000005671764530557627,0.000005738361565472903,0.0000056065485095374485
30626.069170042923,0.000005673164275613967,0.000005739818972670261,0.000005607895546224846
31339.441962810575,0.000005674632556617391,0.000005741347765651552,0.000005609308503591481
32069.431342533462,0.0000056761728612070645,0.0000057429515799947925,0.000005610790732578643
32816.42435924327,0.0000056777888678092515,0.000005744634250489256,0.000005612345767050169
33580.81707852507,0.000005679484457431014,0.000005746399823488586,0.000005613977335057749
34363.01479151657,0.000005681263726322376,0.000005748252570178195,0.000005615689370931188
35163.432229798804,0.000005683130999585562,0.000005750197000840224,0.00000561748602826758
35982.493785292325,0.0000056850908458183945,0.00000575223788020849,0.000005619371693901526
36820.63373527542,0.000005687148092888847,0.0000057543802440164005,0.000005621351002947681
37678.29647264366,0.0000056893078449489835,0.0000057566294168528614,0.000005623428855017396
38555.93674153292,0.000005691575500809108,0.000005758991031454678,0.000005625610431722966
39454.019878430685,0.000005693956773807604,0.00000576147104957971,0.000005627901215596632
40373.02205890369,0.0000056964577133284716,0.0000057640757846228714,0.000005630307010566874
41313.43055007245,0.000005699084728137796,0.000005766811926157565,0.00000563283396415227
42275.74396896676,0.000005701844611732297,0.000005769686566609072,0.000005635488591553693
43260.47254689904,0.000005704744569918693,0.000005772707230293709,0.000005638277801849097
44268.13839999573,0.000005707792250872076,0.000005775881905089679,0.000005641208926522457
45299.275806030186,0.0000057109957779559,0.000005779219077042688,0.000005644289750590222
46354.4314877038,0.000005714363785626405,0.000005782727768253017,0.00000564752854662552
47434.16490252563,0.000005717905458791361,0.000005786417578441976,0.000005650934112023799
48539.04853944417,0.0000057216305760484794,0.000005790298730655928,0.000005654515809904302
49669.668222388595,0.000005725549557294345,0.000005794382121637641,0.000005658283614101998
50826.62342088031,0.000005729673516272434,0.000005798679377479553,0.000005662248158775379
52010.52756787967,0.000005734014318721337,0.000005803202915274882,0.000005666420793240182
53222.008385036235,0.000005738584646894835,0.000005807966011603803,0.000005670813642739771
54461.708215515115,0.000005743398071358452,0.000005812982878838011,0.000005675439675983585
55730.28436457579,0.000005748469131126892,0.000005818268750422961,0.000005680312780430323
57028.40944808409,0.000005753813423400512,0.000005823839976510806,0.000005685447846467769
58356.771749142,0.000005759447704393893,0.000005829714131576752,0.0000056908608618535655
59716.07558302449,0.000005765390003035925,0.000005835910135968503,0.0000056965690180396825
61107.0416706168,0.000005771659749670906,0.000005842448393726955,0.000005702590830318633
62530.4075205502,0.000005778277922319491,0.000005849350949492944,0.000005708946274115637
63986.92782023879,0.000005785267213586257,0.000005856641667902403,0.000005715656940225076
65477.37483602478,0.000005792652221951471,0.000005864346439596904,0.000005722746212373457
67002.53882264435,0.0000058004596719885625,0.000005872493418872845,0.000005730239471211336
68563.22844223113,0.00000580871866904285,0.000005881113299101466,0.000005738164329726997
70160.2711930796,0.000005817460995137771,0.000005890239633425038,0.000005746550906176035
71794.51384839563,0.000005826721454397501,0.000005899909209933538,0.000005755432141984055
73466.8229052668,0.000005836538278157465,0.000005910162492624933,0.000005764844173765543
75178.08504409071,0.0000058469536022557795,0.000005921044142036887,0.000005774826770683446
76929.20759870458,0.0000058580140318502485,0.000005932603632604913,0.000005785423850935735
78721.11903746575,0.000005869771312586805,0.0000059448959876543655,0.000005796684094292203
80554.76945553775,0.000005882283131155968,0.000005957982657567921,0.000005808661671417137
82431.13107864352,0.00000589561407329957,0.000005971932572156073,0.000005821417115294787
84351.19877855219,0.0000059098367732091714,0.000005986823404596156,0.00000583501836549017
86315.99060057336,0.000005925033294928586,0.000006002743091354587,0.0000058495420222224485
88326.54830333816,0.00000594129679357482,0.000006019791659856993,0.000005865074854152731
90383.93791115347,0.0000059587335112980695,0.0000060380834224250115,0.000005881715610971248
92489.25027922212,0.000005977465168635236,0.000006057749599406849,0.000005899577198397497
94643.60167202877,0.000005997631813870033,0.000006078941433277437,0.000005918789277307335
96848.13435519811,0.000006019395186880163,0.000006101833843093817,0.000005939501347125105
99104.01720113918,0.000006042942632214938,0.000006126629635291812,0.000005961886360633042
101412.44630879704,0.000006068491546039898,0.0000061535642159776956,0.000005986144883105958
103774.64563784024,0.0000060962942418987995,0.000006182910614616074,0.000006012509736634523
106191.86765762045,0.000006126642936593883,0.000006214984386196977,0.0000060412509335067305
108665.39401124825,0.000006159874235889422,0.000006250147542176694,0.000006072680457231264
111196.53619513736,0.000006196371959393795,0.000006288809973474193,0.000006107156029655239
113786.63625437728,0.000006236566273223793,0.0000063314257462878685,0.0000061450823115610845
116437.06749430347,0.0000062809257663236495,0.000006378480045669913,0.00000618690689804613
119149.23520864193,0.00000632993721410872,0.000006430460375073464,0.000006233106865039234
121924.57742461457,0.000006384065412190243,0.000006487803178412738,0.000006284159472124536
124764.56566540033,0.0000064436832563301295,0.000006550805412274395,0.000006340488237696491
127670.70573035613,0.0000065089619504067775,0.00000661949232906391,0.000006402374093341327
130644.53849341175,0.0000065797164147682524,0.000006693442358262271,0.0000064698233159009596
133687.64072006146,0.00000665521682041473,0.0000067715926131245925,0.000006542393958762607
136801.62590338607,0.000006734007113873005,0.000006852084118945408,0.000006619005502053834
139988.14511954825,0.000006813808479472034,0.000006932238666583445,0.000006697791770940455
143248.88790321499,0.0000068916032217021005,0.000007008753720384721,0.000006776088312054938
146585.5831433712,0.000006963954074905592,0.000007078126355286636,0.0000068506367703371025
149999.99999999956,0.000007027506405663354,0.000007137193967659684,0.000006918010878307799
153493.94884211267,0.000007079507596623853,0.000007183597907721181,0.000006975147378701564
157069.28220763447,0.000007118155324531062,0.000007216012951260718,0.000007019790450049181
160727.8957856405,0.000007142680936020366,0.000007234112681205067,0.000007050701180146618
164471.72942147727,0.000007153206144812923,0.000007238466568522379,0.00000706761051145643
168302.76814529402,0.000007150485474777657,0.000007230545731057285,0.000007071002764786521
172223.0432245319,0.000007135641128809966,0.000007210801106425849,0.000007061846160089137
176234.6332409289,0.00000710995070206401,0.000007180571297077387,0.000007041353658344721
180339.6651926114,0.000007074703949568964,0.000007141160817531209,0.000007010808928062413
184540.3156218567,0.000007031119752874175,0.0000070937762985278065,0.000006971457910907902
188838.81176912453,0.000006980306278083736,0.0000070395000203105474,0.000006924451357210769
193237.4327539695,0.000006923248306021042,0.000006979285601296694,0.000006870780085247648
197738.51078346046,0.000006860809803129751,0.000006913965330577437,0.00000681112557007367
202344.4323887474,0.000006793743939929429,0.000006844262625555773,0.00000674661747812674
207057.63969043206,0.000006722705925834284,0.000006770805917020757,0.000006677934858269216
211880.63169341246,0.000006648266137749787,0.000006694142053369607,0.000006605669303254617
216815.96561188842,0.00000657092230945487,0.000006614748367886136,0.000006530337104759435
221866.25822523038,0.0000064911102855930945,0.000006533043131707773,0.000006452390197430756
227034.18726543046,0.000006409213237385646,0.000006449394409930972,0.000006372225654733234
232322.49283687142,0.00000632556942910898,0.000006364127471765912,0.000006290193753889038
237733.97886916623,0.0000062404787041138705,0.000006277530952067671,0.0000062066047434140474
243271.51460383867,0.000006154207879750711,0.0000061898619639820254,0.000006121734487741753
248938.03611563324,0.000006066995232294414,0.0000061013503448059095,0.000006035829166019433
254736.54786926077,0.000005979054232452249,0.000006012202192251913,0.000005949109187038654
260670.12431240542,0.000005890576667992135,0.0000059226028225591105,0.00000586177246056185
266741.91150583746,0.000005801735266700184,0.00000583271925825863,0.000005773997142703723
272955.1287914965,0.000005712685912096918,0.000005742702332983171,0.000005685943952163009
279313.0704994291,0.00000562356952667967,0.00000565268848367674,0.000005597758135993221
285819.107694486,0.000005534513682862867,0.0000055628012866564515,0.000005509571148438442
292476.68996370566,0.000005445633989936331,0.000005473152782781176,0.000005421502093940759
299289.34724533075,0.00000535703529584452,0.000005383844628040523,0.000005333658975394203
306260.69170042814,0.0000052688127349979955,0.000005294969098772164,0.000005246139780687322
313394.4196281046,0.000005181052647294928,0.000005206609975081887,0.000005159033434176852
320694.3134253335,0.00000509383338874203,0.0000051188433215757985,0.000005072420634648932
328164.2435924315,0.000005007226050262831,0.0000050317381809714515,0.000004986374597284326
335808.1707852495,0.000004921295098258395,0.00000494535719333752,0.000004900961713931787
343630.1479151645,0.000004836098948075645,0.000004859757151464326,0.000004816242143433964
351634.3222979868,0.000004751690479610193,0.0000047749895010678015,0.000004732270341704098
359824.93785292195,0.000004668117502721522,0.000004691100793081549,0.000004649095539609883
368206.33735275286,0.0000045854231788881456,0.000004608133094121303,0.000004566762175397609
376782.96472643525,0.00000450364640451596,0.000004526124360254521,0.000004485310287317841
385559.36741532775,0.000004422822160485826,0.000004445108778430114,0.000004404775871241391
394540.1987843054,0.0000043429818318478465,0.000004365117079283498,0.000004325191207339865
403730.2205890354,0.000004264153501009929,0.000004286176824502544,0.000004246585159317122
413134.30550072296,0.000004186362217303622,0.0000042083126714985135,0.000004168983449190868
422757.439689666,0.0000041096302454219096,0.000004131546617755155,0.000004092408910218048
432604.7254689887,0.000004033977294897382,0.000004055898226915178,0.000004016881720217765
442681.3839999556,0.000003959420732512756,0.000003981384838394705,0.000003942419617258839
452992.75806030014,0.000003885975779299949,0.000003908021762084243,0.000003869038099435934
463544.3148770362,0.000003813655693580984,0.000003835822459491398,0.0000037967506102504
474341.6490252545,0.0000037424719413277322,0.0000037647987124997714,0.000003725568710933232
485390.4853944399,0.0000036724343549625857,0.000003694960780754667,0.0000036555022408924712
496696.68222388404,0.000003603551281584211,0.000003626317548534464,0.0000035865594673316538
508266.2342088011,0.000003535829721477767,0.0000035588766618224896,0.0000035187472249658684
520105.27567879466,0.000003469275457653848,0.0000034926446561535,0.000003452071046654502
532220.0838503604,0.000003403893177052019,0.0000034276270756674286,0.0000033865352856719975
544617.0821551491,0.0000033396865839400017,0.000003363828583656632,0.0000033221432302476113
557302.8436457558,0.00000327665850593556,0.0000033012530647370458,0.0000032588972109197995
570284.0944808386,0.0000032148109929720137,0.000003239903718603858,0.000003196798701168499
583567.7174914177,0.0000031541454094168964,0.0000031797831451434588,0.000003135848411706769
597160.7558302425,0.0000030946625194334834,0.000003120893420460425,0.0000030760463787301913
611070.4167061656,0.000003036362565543119,0.000003063236163135386,0.000003017392046335447
625304.0752054995,0.000002979245340198745,0.0000030068125897513423,0.000002959884343226331
639869.2782023853,0.0000029233102500125667,0.0000029516235584067558,0.0000029035217537234003
654773.7483602451,0.000002868556372089122,0.0000028976695985689692,0.0000028483023829794766
670025.3882264408,0.0000028149825016944036,0.0000028449509252079572,0.0000027942240161741353
685632.2844223086,0.000002762587190237802,0.0000027934674346879905,0.0000027412841713126426
701602.7119307932,0.000002711368772252111,0.000002743218679387823,0.0000026894801450846683
717945.1384839533,0.0000026613253797248164,0.000002694203817480329,0.0000026388090510416943
734668.229052665,0.0000026124549417598325,0.0000026464215337526106,0.000002589267849125522
751780.8504409039,0.0000025647551671349964,0.00000259986992682518,0.000002540853365320176
769292.0759870426,0.0000025182235068736855,0.0000025545463576924196,0.0000024935622999034283
787211.1903746541,0.000002472857093483709,0.0000025104472542416803,0.000002447391222441337
805547.6945553742,0.000002428652653058342,0.0000024675678664340913,0.000002402336551302016
824311.3107864318,0.000002385606386023597,0.000002425901967304203,0.0000023583945150700147
843511.9877855184,0.000002343713812012832,0.0000023854414960562326,0.000002315561092834092
863159.90600573,0.0000023029695742402374,0.0000023461761415356647,0.000002273831929922223
883265.4830333779,0.00000226336719894434,0.0000023080928674882247,0.0000022332022253052533
903839.379111531,0.000002224898806130587,0.0000022711753855194264,0.0000021936665866393947
924892.5027922174,0.000002187554769139798,0.0000022354035876980888,0.000002155218848844308
946436.0167202839,0.0000021513233227122435,0.000002200752958308344,0.000002117851852321165
968481.3435519771,0.0000021161901224142564,0.0000021671939930823455,0.0000020815571775355553
991040.1720113877,0.0000020821377627211714,0.000002134691663694886,0.000002046324833883046
1014124.4630879661,0.000002049145266791283,0.0000021032049742563262,0.0000020121429026997523
1037746.456378398,0.0000020171875679349353,0.0000020726866634022624,0.000001978997137157059
1061918.6765762,0.0000019862350106324514,0.0000020430831083839085,0.0000019468705257380766
1086653.9401124779,0.0000019562529069839176,0.000002014334484288041,0.0000019157428311012727
1111965.3619513689,0.0000019272011915774238,0.0000019863752205640334,0.0000018855901223121117
1137866.362543768,0.0000018990342224574753,0.0000019591347778432635,0.0000018563843253550884
1164370.6749430296,0.0000018717007764576204,0.000001932538741614985,0.0000018280928239094612
1191492.3520864141,0.0000018451442820169363,0.0000019065101985196094,0.0000018006781486158623
1219245.7742461406,0.000001819303320654682,0.0000018809713302769684,0.000001774097797186857
1247645.656653998,0.0000017941124094951398,0.0000018558451348066268,0.0000017483042282414465
1276707.057303556,0.0000017695030530038736,0.0000018310571686854938,0.0000017232450672674835
1306445.384934112,0.0000017454050253143949,0.00000180653720273352,0.00000169886355269471
1336876.407200609,0.0000017217478192337812,0.0000017822206935689659,0.0000016750992336412782
1368016.259033855,0.0000016984621785949284,0.0000017580499959636551,0.000001651888909649006
1399881.4511954768,0.000001675481620705492,0.0000017339752691602256,0.0000016291677791236108
1432488.8790321439,0.0000016527438571098835,0.000001709955059561023,0.0000016068707407314606
1465855.8314337058,0.0000016301920332822283,0.0000016859565675625408,0.0000015849337744861734
1499999.9999999895,0.000001607775728518129,0.0000016619556247454319,0.0000015632953199043345
1534939.4884211204,0.0000015854516820186207,0.0000016379364183059693,0.0000015418975691642486
1570692.8220763383,0.000001563184235461493,0.0000016138910036318372,0.0000015206876034118322
1607278.9578563983,0.000001540945502574489,0.0000015898186455089014,0.000001499618318012539
1644717.2942147658,0.000001518715290334647,0.0000015657250259765228,0.0000014786491040931204
1683027.681452933,0.000001496480804216001,0.0000015416213541015613,0.0000014577462752387154
1722230.4322453116,0.000001474236172628805,0.0000015175234107489703,0.0000014368832464536566
1762346.3324092813,0.0000014519818252647654,0.0000014934505597824538,0.0000014160404855741508
1803396.651926106,0.0000014297237583270206,0.0000014694247555568674,0.0000013952052649300547
1845403.1562185585,0.0000014074727178053916,0.0000014454695745467313,0.000001374371244157998
1888388.1176912368,0.000001385243330504629,0.000001421609296228518,0.0000013535379152827822
1932374.3275396866,0.0000013630532112881302,0.000001397868054984174,0.0000013327099400946784
1977385.107834596,0.000001340922073539472,0.000001374269081171742,0.0000013118964085392032
2023444.3238874653,0.0000013188708678117334,0.0000013508340460515135,0.0000012911100457243596
2070576.3969043116,0.0000012969209709310788,0.0000013275825222880307,0.0000012703663941308367
2118806.3169341153,0.0000012750934446291888,0.0000013045315693429959,0.0000012496829963361016
2168159.6561188744,0.0000012534083794551302,0.0000012816954509988102,0.0000012290786017333635
